INDEX VERSION 1.131+C:\Users\ramannpr\support_works\Dinesh\.metadata\.plugins\org.eclipse.jdt.core
2950033351.index
2733570079.index
262629720.index
2053493502.index
2167675953.index
2443317927.index
3206735768.index
1743549507.index
676535794.index
1558093059.index
204044609.index
4143767740.index
3370275585.index
3967280502.index
2549144462.index
3573622524.index
3741132624.index
4150300243.index
1228796139.index
1662300474.index
2416067767.index
602885882.index
1441918778.index
924709048.index
3324278907.index
3662550970.index
2507475985.index
3664434139.index
3484441794.index
1501655495.index
249954200.index
2611766994.index
4176118702.index
1737117284.index
3861976282.index
3880231276.index
1495270895.index
446869445.index
1094762268.index
3008087201.index
2112741047.index
689552030.index
1158433969.index
1614806129.index
1972697557.index
2205750552.index
637405416.index
4250916635.index
332552512.index
398852022.index
2231687035.index
2532292776.index
2818058632.index
457881303.index
2169407369.index
4153713342.index
2168459144.index
1100469945.index
2513897111.index
3862945460.index
3271529772.index
1515444387.index
656741405.index
986730341.index
319198531.index
3962763584.index
3962446290.index
626710361.index
778568628.index
2088757168.index
1835516591.index
751887502.index
3141256530.index
1185814170.index
1402451446.index
2826165369.index
542251436.index
1575816604.index
1047836037.index
3549324868.index
711674607.index
2138448766.index
3915658389.index
1614210133.index
4089993896.index
3964451762.index
385337418.index
1950746207.index
1214367305.index
499894965.index
3598707229.index
2917298616.index
1367400509.index
3515129874.index
1876401774.index
3651360691.index
1791818275.index
1837876374.index
1225148049.index
3790252058.index
3540492650.index
837546523.index
3000392679.index
317821476.index
1227519278.index
1864135552.index
362199794.index
1456010245.index
569402332.index
890392424.index
2747938833.index
2380200152.index
2204403105.index
1655230666.index
3473870658.index
374393369.index
2720751595.index
3845910686.index
1581220975.index
2080692850.index
2875306433.index
3058141218.index
4089818009.index
2676596651.index
3397171082.index
106914297.index
258828259.index
